Energy (keV),Counts
0.05,28498
0.055,27975
0.06,27195
0.065,26265
0.07,25013
0.075,23376
0.08,21411
0.085,19703
0.09,17754
0.095,15962
0.1,13952
0.105,12102
0.11,10488
0.115,8663
0.12,7437
0.125,6083
0.13,4917
0.135,4011
0.14,3245
0.145,2622
0.15,2111
0.155,1796
0.16,1452
0.165,1284
0.17,1140
0.175,967
0.18,953
0.185,965
0.19,1002
0.195,1040
0.2,1145
0.205,1290
0.21,1421
0.215,1495
0.22,1615
0.225,1728
0.23,1871
0.235,1950
0.24,2067
0.245,2176
0.25,2231
0.255,2340
0.26,2401
0.265,2406
0.27,2428
0.275,2378
0.28,2326
0.285,2302
0.29,2125
0.295,2037
0.3,1968
0.305,1860
0.31,1715
0.315,1547
0.32,1433
0.325,1374
0.33,1264
0.335,1122
0.34,974
0.345,911
0.35,853
0.355,803
0.36,785
0.365,741
0.37,663
0.375,661
0.38,668
0.385,682
0.39,643
0.395,697
0.4,688
0.405,730
0.41,728
0.415,815
0.42,881
0.425,883
0.43,901
0.435,976
0.44,1019
0.445,1101
0.45,1194
0.455,1240
0.46,1295
0.465,1381
0.47,1538
0.475,1569
0.48,1614
0.485,1723
0.49,1788
0.495,1981
0.5,2134
0.505,2222
0.51,2372
0.515,2544
0.52,2725
0.525,2900
0.53,3092
0.535,3321
0.54,3686
0.545,3878
0.55,4312
0.555,4511
0.56,4988
0.565,5334
0.57,5795
0.575,6244
0.58,6781
0.585,7243
0.59,7627
0.595,8053
0.6,8531
0.605,9051
0.61,9576
0.615,10031
0.62,10515
0.625,11088
0.63,11695
0.635,12350
0.64,12798
0.645,13451
0.65,14030
0.655,14718
0.66,15534
0.665,16236
0.67,16734
0.675,17154
0.68,17862
0.685,18113
0.69,18334
0.695,18663
0.7,18632
0.705,18459
0.71,17866
0.715,17190
0.72,16466
0.725,15543
0.73,14388
0.735,13379
0.74,12150
0.745,10881
0.75,9885
0.755,8704
0.76,7509
0.765,6586
0.77,5613
0.775,4840
0.78,4138
0.785,3497
0.79,3005
0.795,2485
0.8,2101
0.805,1848
0.81,1538
0.815,1379
0.82,1229
0.825,1108
0.83,1049
0.835,974
0.84,897
0.845,886
0.85,902
0.855,859
0.86,851
0.865,787
0.87,815
0.875,767
0.88,746
0.885,743
0.89,717
0.895,657
0.9,681
0.905,696
0.91,653
0.915,628
0.92,614
0.925,594
0.93,588
0.935,566
0.94,570
0.945,588
0.95,590
0.955,553
0.96,558
0.965,572
0.97,582
0.975,593
0.98,592
0.985,596
0.99,615
0.995,606
1,627
1.005,587
1.01,594
1.015,633
1.02,672
1.025,631
1.03,650
1.035,664
1.04,628
1.045,655
1.05,653
1.055,705
1.06,710
1.065,729
1.07,676
1.075,684
1.08,729
1.085,698
1.09,667
1.095,696
1.1,736
1.105,729
1.11,718
1.115,706
1.12,717
1.125,711
1.13,698
1.135,729
1.14,785
1.145,731
1.15,760
1.155,782
1.16,774
1.165,783
1.17,783
1.175,795
1.18,811
1.185,812
1.19,844
1.195,851
1.2,844
1.205,856
1.21,824
1.215,807
1.22,853
1.225,816
1.23,855
1.235,872
1.24,871
1.245,895
1.25,884
1.255,891
1.26,895
1.265,879
1.27,941
1.275,920
1.28,914
1.285,886
1.29,882
1.295,955
1.3,925
1.305,940
1.31,945
1.315,948
1.32,964
1.325,934
1.33,1029
1.335,977
1.34,961
1.345,966
1.35,998
1.355,1010
1.36,1018
1.365,1002
1.37,1037
1.375,996
1.38,1007
1.385,1034
1.39,982
1.395,1014
1.4,1044
1.405,1048
1.41,1023
1.415,1029
1.42,1066
1.425,1093
1.43,1115
1.435,1103
1.44,1089
1.445,1055
1.45,1074
1.455,1105
1.46,1135
1.465,1086
1.47,1087
1.475,1099
1.48,1157
1.485,1150
1.49,1140
1.495,1147
1.5,1168
1.505,1146
1.51,1157
1.515,1152
1.52,1120
1.525,1121
1.53,1123
1.535,1104
1.54,1144
1.545,1108
1.55,1134
1.555,1084
1.56,1091
1.565,1145
1.57,1150
1.575,1110
1.58,1126
1.585,1167
1.59,1170
1.595,1141
1.6,1133
1.605,1145
1.61,1106
1.615,1121
1.62,1157
1.625,1180
1.63,1218
1.635,1246
1.64,1206
1.645,1244
1.65,1248
1.655,1235
1.66,1237
1.665,1282
1.67,1277
1.675,1289
1.68,1288
1.685,1336
1.69,1348
1.695,1381
1.7,1354
1.705,1367
1.71,1377
1.715,1444
1.72,1455
1.725,1471
1.73,1470
1.735,1416
1.74,1420
1.745,1484
1.75,1529
1.755,1546
1.76,1493
1.765,1467
1.77,1432
1.775,1447
1.78,1470
1.785,1487
1.79,1479
1.795,1473
1.8,1469
1.805,1480
1.81,1452
1.815,1434
1.82,1416
1.825,1354
1.83,1418
1.835,1321
1.84,1335
1.845,1308
1.85,1271
1.855,1302
1.86,1289
1.865,1319
1.87,1287
1.875,1275
1.88,1247
1.885,1329
1.89,1323
1.895,1251
1.9,1267
1.905,1289
1.91,1271
1.915,1268
1.92,1279
1.925,1316
1.93,1284
1.935,1232
1.94,1266
1.945,1284
1.95,1298
1.955,1283
1.96,1263
1.965,1264
1.97,1247
1.975,1293
1.98,1327
1.985,1333
1.99,1337
1.995,1304
2,1304
2.005,1286
2.01,1321
2.015,1271
2.02,1302
2.025,1303
2.03,1319
2.035,1322
2.04,1278
2.045,1326
2.05,1349
2.055,1340
2.06,1300
2.065,1342
2.07,1358
2.075,1324
2.08,1348
2.085,1384
2.09,1372
2.095,1359
2.1,1377
2.105,1355
2.11,1335
2.115,1297
2.12,1315
2.125,1306
2.13,1338
2.135,1332
2.14,1313
2.145,1326
2.15,1320
2.155,1348
2.16,1346
2.165,1316
2.17,1338
2.175,1314
2.18,1332
2.185,1364
2.19,1337
2.195,1342
2.2,1351
2.205,1322
2.21,1338
2.215,1343
2.22,1349
2.225,1362
2.23,1379
2.235,1358
2.24,1319
2.245,1341
2.25,1361
2.255,1357
2.26,1342
2.265,1362
2.27,1339
2.275,1361
2.28,1369
2.285,1375
2.29,1385
2.295,1389
2.3,1380
2.305,1383
2.31,1449
2.315,1371
2.32,1403
2.325,1430
2.33,1396
2.335,1384
2.34,1347
2.345,1359
2.35,1327
2.355,1312
2.36,1377
2.365,1370
2.37,1322
2.375,1354
2.38,1377
2.385,1362
2.39,1393
2.395,1371
2.4,1371
2.405,1359
2.41,1355
2.415,1346
2.42,1325
2.425,1379
2.43,1356
2.435,1369
2.44,1395
2.445,1373
2.45,1327
2.455,1365
2.46,1317
2.465,1384
2.47,1344
2.475,1340
2.48,1396
2.485,1376
2.49,1399
2.495,1338
2.5,1314
2.505,1338
2.51,1400
2.515,1360
2.52,1370
2.525,1337
2.53,1382
2.535,1400
2.54,1409
2.545,1387
2.55,1429
2.555,1439
2.56,1388
2.565,1467
2.57,1481
2.575,1502
2.58,1492
2.585,1432
2.59,1446
2.595,1478
2.6,1505
2.605,1504
2.61,1554
2.615,1523
2.62,1575
2.625,1573
2.63,1525
2.635,1551
2.64,1530
2.645,1509
2.65,1528
2.655,1513
2.66,1495
2.665,1505
2.67,1467
2.675,1460
2.68,1406
2.685,1403
2.69,1434
2.695,1394
2.7,1394
2.705,1380
2.71,1358
2.715,1382
2.72,1379
2.725,1368
2.73,1341
2.735,1326
2.74,1376
2.745,1353
2.75,1339
2.755,1318
2.76,1300
2.765,1305
2.77,1322
2.775,1312
2.78,1288
2.785,1314
2.79,1311
2.795,1321
2.8,1284
2.805,1284
2.81,1269
2.815,1328
2.82,1327
2.825,1325
2.83,1309
2.835,1326
2.84,1266
2.845,1285
2.85,1249
2.855,1294
2.86,1250
2.865,1254
2.87,1260
2.875,1276
2.88,1296
2.885,1300
2.89,1270
2.895,1276
2.9,1313
2.905,1329
2.91,1248
2.915,1287
2.92,1272
2.925,1241
2.93,1216
2.935,1232
2.94,1243
2.945,1221
2.95,1244
2.955,1287
2.96,1279
2.965,1264
2.97,1256
2.975,1218
2.98,1169
2.985,1249
2.99,1252
2.995,1229
3,1202
3.005,1224
3.01,1202
3.015,1214
3.02,1249
3.025,1228
3.03,1206
3.035,1180
3.04,1220
3.045,1225
3.05,1251
3.055,1227
3.06,1200
3.065,1222
3.07,1188
3.075,1187
3.08,1212
3.085,1202
3.09,1210
3.095,1220
3.1,1163
3.105,1208
3.11,1246
3.115,1268
3.12,1228
3.125,1223
3.13,1209
3.135,1227
3.14,1222
3.145,1187
3.15,1162
3.155,1213
3.16,1217
3.165,1199
3.17,1212
3.175,1180
3.18,1171
3.185,1186
3.19,1212
3.195,1164
3.2,1177
3.205,1150
3.21,1187
3.215,1220
3.22,1216
3.225,1189
3.23,1238
3.235,1218
3.24,1186
3.245,1192
3.25,1186
3.255,1223
3.26,1263
3.265,1191
3.27,1182
3.275,1176
3.28,1159
3.285,1210
3.29,1224
3.295,1200
3.3,1194
3.305,1206
3.31,1211
3.315,1178
3.32,1172
3.325,1224
3.33,1201
3.335,1178
3.34,1165
3.345,1160
3.35,1191
3.355,1175
3.36,1180
3.365,1162
3.37,1127
3.375,1118
3.38,1171
3.385,1167
3.39,1189
3.395,1125
3.4,1142
3.405,1159
3.41,1130
3.415,1086
3.42,1150
3.425,1138
3.43,1141
3.435,1100
3.44,1093
3.445,1161
3.45,1158
3.455,1149
3.46,1133
3.465,1132
3.47,1145
3.475,1173
3.48,1189
3.485,1145
3.49,1134
3.495,1165
3.5,1098
3.505,1111
3.51,1120
3.515,1133
3.52,1121
3.525,1136
3.53,1072
3.535,1074
3.54,1089
3.545,1109
3.55,1116
3.555,1151
3.56,1102
3.565,1102
3.57,1129
3.575,1081
3.58,1154
3.585,1150
3.59,1138
3.595,1060
3.6,1096
3.605,1115
3.61,1065
3.615,1113
3.62,1094
3.625,1098
3.63,1123
3.635,1108
3.64,1126
3.645,1136
3.65,1170
3.655,1209
3.66,1136
3.665,1122
3.67,1130
3.675,1178
3.68,1178
3.685,1179
3.69,1124
3.695,1155
3.7,1197
3.705,1120
3.71,1160
3.715,1122
3.72,1112
3.725,1132
3.73,1089
3.735,1084
3.74,1104
3.745,1150
3.75,1091
3.755,1070
3.76,1085
3.765,1121
3.77,1090
3.775,1019
3.78,1047
3.785,1054
3.79,1056
3.795,1078
3.8,1084
3.805,1059
3.81,1026
3.815,1011
3.82,1014
3.825,986
3.83,1053
3.835,1075
3.84,1036
3.845,1040
3.85,1009
3.855,1002
3.86,973
3.865,984
3.87,966
3.875,982
3.88,1035
3.885,988
3.89,1035
3.895,1031
3.9,990
3.905,1051
3.91,1029
3.915,975
3.92,967
3.925,1012
3.93,1012
3.935,1028
3.94,995
3.945,953
3.95,957
3.955,981
3.96,973
3.965,982
3.97,998
3.975,962
3.98,987
3.985,1000
3.99,973
3.995,963
4,961
4.005,1001
4.01,1008
4.015,999
4.02,981
4.025,938
4.03,935
4.035,947
4.04,955
4.045,988
4.05,995
4.055,990
4.06,1006
4.065,972
4.07,962
4.075,954
4.08,975
4.085,883
4.09,918
4.095,953
4.1,982
4.105,982
4.11,965
4.115,963
4.12,948
4.125,987
4.13,973
4.135,945
4.14,918
4.145,921
4.15,961
4.155,921
4.16,919
4.165,950
4.17,982
4.175,932
4.18,882
4.185,890
4.19,916
4.195,943
4.2,952
4.205,907
4.21,939
4.215,941
4.22,919
4.225,920
4.23,887
4.235,880
4.24,891
4.245,911
4.25,897
4.255,929
4.26,956
4.265,953
4.27,922
4.275,897
4.28,911
4.285,928
4.29,908
4.295,863
4.3,892
4.305,932
4.31,948
4.315,904
4.32,874
4.325,926
4.33,911
4.335,827
4.34,897
4.345,907
4.35,918
4.355,918
4.36,916
4.365,897
4.37,897
4.375,880
4.38,910
4.385,942
4.39,906
4.395,878
4.4,902
4.405,895
4.41,891
4.415,880
4.42,846
4.425,873
4.43,913
4.435,900
4.44,899
4.445,905
4.45,901
4.455,848
4.46,838
4.465,866
4.47,909
4.475,891
4.48,867
4.485,840
4.49,886
4.495,859
4.5,895
4.505,917
4.51,903
4.515,917
4.52,919
4.525,844
4.53,879
4.535,897
4.54,930
4.545,945
4.55,939
4.555,917
4.56,910
4.565,893
4.57,913
4.575,941
4.58,919
4.585,945
4.59,921
4.595,947
4.6,955
4.605,987
4.61,991
4.615,955
4.62,957
4.625,957
4.63,991
4.635,1001
4.64,1012
4.645,1021
4.65,1019
4.655,933
4.66,959
4.665,992
4.67,970
4.675,911
4.68,943
4.685,971
4.69,964
4.695,968
4.7,937
4.705,932
4.71,885
4.715,911
4.72,855
4.725,913
4.73,906
4.735,870
4.74,864
4.745,863
4.75,844
4.755,915
4.76,896
4.765,833
4.77,832
4.775,833
4.78,848
4.785,854
4.79,806
4.795,768
4.8,818
4.805,850
4.81,852
4.815,815
4.82,793
4.825,800
4.83,816
4.835,819
4.84,801
4.845,803
4.85,829
4.855,802
4.86,765
4.865,799
4.87,769
4.875,762
4.88,789
4.885,775
4.89,802
4.895,776
4.9,782
4.905,795
4.91,822
4.915,806
4.92,756
4.925,774
4.93,800
4.935,809
4.94,746
4.945,745
4.95,791
4.955,795
4.96,777
4.965,779
4.97,747
4.975,782
4.98,771
4.985,786
4.99,817
4.995,803
5,783
5.005,777
5.01,773
5.015,778
5.02,781
5.025,763
5.03,779
5.035,782
5.04,772
5.045,798
5.05,786
5.055,784
5.06,749
5.065,771
5.07,784
5.075,783
5.08,791
5.085,786
5.09,768
5.095,775
5.1,746
5.105,754
5.11,766
5.115,758
5.12,759
5.125,785
5.13,803
5.135,782
5.14,734
5.145,756
5.15,792
5.155,783
5.16,810
5.165,784
5.17,801
5.175,783
5.18,809
5.185,789
5.19,783
5.195,820
5.2,818
5.205,819
5.21,798
5.215,813
5.22,837
5.225,851
5.23,838
5.235,822
5.24,832
5.245,855
5.25,865
5.255,865
5.26,904
5.265,916
5.27,913
5.275,938
5.28,942
5.285,1035
5.29,1022
5.295,1069
5.3,1146
5.305,1164
5.31,1207
5.315,1265
5.32,1347
5.325,1397
5.33,1420
5.335,1462
5.34,1531
5.345,1638
5.35,1739
5.355,1738
5.36,1839
5.365,1938
5.37,2000
5.375,2060
5.38,2088
5.385,2076
5.39,2225
5.395,2217
5.4,2260
5.405,2228
5.41,2170
5.415,2213
5.42,2242
5.425,2229
5.43,2165
5.435,2186
5.44,2156
5.445,2051
5.45,2066
5.455,1986
5.46,1827
5.465,1766
5.47,1703
5.475,1626
5.48,1591
5.485,1504
5.49,1428
5.495,1360
5.5,1339
5.505,1281
5.51,1165
5.515,1144
5.52,1085
5.525,1041
5.53,1039
5.535,954
5.54,901
5.545,866
5.55,856
5.555,815
5.56,806
5.565,779
5.57,759
5.575,764
5.58,728
5.585,733
5.59,702
5.595,719
5.6,724
5.605,763
5.61,743
5.615,731
5.62,743
5.625,723
5.63,733
5.635,727
5.64,721
5.645,705
5.65,725
5.655,704
5.66,751
5.665,715
5.67,703
5.675,707
5.68,703
5.685,718
5.69,741
5.695,762
5.7,778
5.705,730
5.71,703
5.715,729
5.72,754
5.725,702
5.73,771
5.735,779
5.74,733
5.745,752
5.75,795
5.755,786
5.76,794
5.765,800
5.77,774
5.775,871
5.78,848
5.785,841
5.79,831
5.795,873
5.8,845
5.805,881
5.81,943
5.815,922
5.82,950
5.825,960
5.83,983
5.835,1027
5.84,998
5.845,1040
5.85,1084
5.855,1105
5.86,1125
5.865,1080
5.87,1097
5.875,1149
5.88,1171
5.885,1167
5.89,1217
5.895,1181
5.9,1206
5.905,1193
5.91,1216
5.915,1249
5.92,1232
5.925,1306
5.93,1281
5.935,1237
5.94,1278
5.945,1260
5.95,1254
5.955,1249
5.96,1216
5.965,1250
5.97,1250
5.975,1208
5.98,1160
5.985,1194
5.99,1230
5.995,1159
6,1162
6.005,1138
6.01,1165
6.015,1153
6.02,1185
6.025,1176
6.03,1152
6.035,1133
6.04,1132
6.045,1120
6.05,1153
6.055,1219
6.06,1226
6.065,1237
6.07,1232
6.075,1239
6.08,1248
6.085,1262
6.09,1298
6.095,1377
6.1,1373
6.105,1398
6.11,1385
6.115,1448
6.12,1468
6.125,1533
6.13,1569
6.135,1620
6.14,1653
6.145,1745
6.15,1732
6.155,1870
6.16,1845
6.165,1963
6.17,2043
6.175,2133
6.18,2199
6.185,2319
6.19,2419
6.195,2538
6.2,2740
6.205,2865
6.21,3068
6.215,3243
6.22,3398
6.225,3711
6.23,4031
6.235,4355
6.24,4658
6.245,5195
6.25,5689
6.255,6286
6.26,6974
6.265,7670
6.27,8543
6.275,9413
6.28,10269
6.285,11336
6.29,12621
6.295,13866
6.3,15071
6.305,16395
6.31,17947
6.315,19649
6.32,21310
6.325,22751
6.33,24376
6.335,25942
6.34,27614
6.345,29116
6.35,30804
6.355,32309
6.36,33627
6.365,34929
6.37,36287
6.375,37058
6.38,38035
6.385,38309
6.39,38440
6.395,39000
6.4,38668
6.405,38682
6.41,38528
6.415,37780
6.42,36835
6.425,35815
6.43,34637
6.435,33566
6.44,32145
6.445,30534
6.45,28672
6.455,27018
6.46,25502
6.465,23950
6.47,22118
6.475,20358
6.48,18879
6.485,17206
6.49,15619
6.495,14043
6.5,12498
6.505,11277
6.51,10057
6.515,8884
6.52,7992
6.525,6910
6.53,6061
6.535,5331
6.54,4728
6.545,4038
6.55,3470
6.555,3080
6.56,2689
6.565,2338
6.57,2072
6.575,1774
6.58,1597
6.585,1410
6.59,1238
6.595,1100
6.6,1009
6.605,934
6.61,866
6.615,839
6.62,814
6.625,782
6.63,719
6.635,729
6.64,710
6.645,672
6.65,672
6.655,635
6.66,657
6.665,641
6.67,660
6.675,680
6.68,698
6.685,708
6.69,680
6.695,651
6.7,651
6.705,646
6.71,633
6.715,645
6.72,658
6.725,656
6.73,655
6.735,659
6.74,681
6.745,711
6.75,707
6.755,692
6.76,707
6.765,701
6.77,708
6.775,747
6.78,754
6.785,776
6.79,771
6.795,782
6.8,755
6.805,796
6.81,802
6.815,809
6.82,795
6.825,812
6.83,829
6.835,849
6.84,868
6.845,877
6.85,907
6.855,895
6.86,1016
6.865,1026
6.87,1061
6.875,1060
6.88,1116
6.885,1132
6.89,1229
6.895,1276
6.9,1330
6.905,1398
6.91,1478
6.915,1639
6.92,1697
6.925,1784
6.93,1909
6.935,2081
6.94,2205
6.945,2401
6.95,2480
6.955,2640
6.96,2778
6.965,2983
6.97,3142
6.975,3357
6.98,3633
6.985,3713
6.99,3892
6.995,4211
7,4381
7.005,4540
7.01,4653
7.015,4864
7.02,4893
7.025,4965
7.03,5242
7.035,5354
7.04,5381
7.045,5412
7.05,5462
7.055,5496
7.06,5419
7.065,5512
7.07,5311
7.075,5116
7.08,5093
7.085,4923
7.09,4800
7.095,4579
7.1,4401
7.105,4141
7.11,3991
7.115,3822
7.12,3584
7.125,3343
7.13,3127
7.135,2896
7.14,2712
7.145,2537
7.15,2311
7.155,2189
7.16,2038
7.165,1835
7.17,1663
7.175,1554
7.18,1395
7.185,1294
7.19,1154
7.195,1058
7.2,1002
7.205,907
7.21,816
7.215,757
7.22,689
7.225,692
7.23,645
7.235,619
7.24,610
7.245,547
7.25,524
7.255,489
7.26,469
7.265,483
7.27,463
7.275,447
7.28,460
7.285,458
7.29,430
7.295,439
7.3,468
7.305,434
7.31,437
7.315,451
7.32,456
7.325,443
7.33,468
7.335,483
7.34,496
7.345,518
7.35,545
7.355,518
7.36,554
7.365,572
7.37,569
7.375,616
7.38,610
7.385,622
7.39,658
7.395,702
7.4,691
7.405,705
7.41,750
7.415,770
7.42,770
7.425,798
7.43,803
7.435,807
7.44,812
7.445,825
7.45,807
7.455,838
7.46,850
7.465,900
7.47,870
7.475,861
7.48,845
7.485,878
7.49,866
7.495,832
7.5,796
7.505,833
7.51,799
7.515,756
7.52,737
7.525,733
7.53,700
7.535,685
7.54,619
7.545,647
7.55,626
7.555,612
7.56,613
7.565,566
7.57,544
7.575,529
7.58,506
7.585,505
7.59,493
7.595,481
7.6,462
7.605,416
7.61,446
7.615,431
7.62,430
7.625,434
7.63,433
7.635,417
7.64,416
7.645,409
7.65,417
7.655,415
7.66,388
7.665,396
7.67,412
7.675,383
7.68,388
7.685,366
7.69,385
7.695,393
7.7,409
7.705,398
7.71,374
7.715,392
7.72,410
7.725,400
7.73,383
7.735,378
7.74,384
7.745,378
7.75,377
7.755,374
7.76,365
7.765,391
7.77,374
7.775,376
7.78,348
7.785,369
7.79,363
7.795,370
7.8,390
7.805,374
7.81,376
7.815,380
7.82,400
7.825,390
7.83,393
7.835,385
7.84,360
7.845,362
7.85,385
7.855,384
7.86,379
7.865,345
7.87,363
7.875,395
7.88,398
7.885,388
7.89,381
7.895,367
7.9,367
7.905,362
7.91,353
7.915,342
7.92,370
7.925,382
7.93,362
7.935,333
7.94,361
7.945,386
7.95,365
7.955,361
7.96,359
7.965,362
7.97,348
7.975,356
7.98,359
7.985,362
7.99,363
7.995,376
8,336
8.005,350
8.01,379
8.015,356
8.02,369
8.025,381
8.03,364
8.035,378
8.04,390
8.045,366
8.05,369
8.055,369
8.06,384
8.065,370
8.07,372
8.075,392
8.08,391
8.085,367
8.09,378
8.095,389
8.1,365
8.105,357
8.11,368
8.115,360
8.12,360
8.125,361
8.13,387
8.135,377
8.14,379
8.145,411
8.15,397
8.155,389
8.16,416
8.165,399
8.17,411
8.175,389
8.18,405
8.185,376
8.19,393
8.195,413
8.2,409
8.205,393
8.21,400
8.215,418
8.22,441
8.225,440
8.23,416
8.235,429
8.24,429
8.245,423
8.25,424
8.255,427
8.26,426
8.265,423
8.27,395
8.275,415
8.28,403
8.285,439
8.29,407
8.295,420
8.3,402
8.305,398
8.31,408
8.315,407
8.32,402
8.325,372
8.33,413
8.335,384
8.34,376
8.345,377
8.35,365
8.355,356
8.36,352
8.365,371
8.37,405
8.375,361
8.38,366
8.385,356
8.39,339
8.395,347
8.4,373
8.405,352
8.41,359
8.415,368
8.42,347
8.425,355
8.43,349
8.435,350
8.44,302
8.445,330
8.45,359
8.455,340
8.46,334
8.465,336
8.47,324
8.475,339
8.48,341
8.485,345
8.49,318
8.495,313
8.5,320
8.505,339
8.51,307
8.515,316
8.52,325
8.525,325
8.53,336
8.535,326
8.54,301
8.545,315
8.55,329
8.555,339
8.56,334
8.565,315
8.57,329
8.575,327
8.58,317
8.585,335
8.59,340
8.595,341
8.6,360
8.605,320
8.61,319
8.615,310
8.62,344
8.625,334
8.63,337
8.635,352
8.64,337
8.645,328
8.65,337
8.655,328
8.66,354
8.665,356
8.67,340
8.675,339
8.68,321
8.685,306
8.69,310
8.695,337
8.7,329
8.705,349
8.71,332
8.715,317
8.72,325
8.725,334
8.73,357
8.735,327
8.74,322
8.745,311
8.75,327
8.755,331
8.76,317
8.765,306
8.77,314
8.775,331
8.78,359
8.785,339
8.79,328
8.795,322
8.8,325
8.805,291
8.81,293
8.815,333
8.82,328
8.825,364
8.83,329
8.835,309
8.84,349
8.845,334
8.85,297
8.855,301
8.86,337
8.865,362
8.87,363
8.875,325
8.88,293
8.885,357
8.89,351
8.895,310
8.9,325
8.905,308
8.91,340
8.915,323
8.92,345
8.925,345
8.93,349
8.935,321
8.94,317
8.945,297
8.95,328
8.955,327
8.96,327
8.965,344
8.97,326
8.975,310
8.98,339
8.985,299
8.99,292
8.995,288
9,310
9.005,311
9.01,307
9.015,308
9.02,311
9.025,307
9.03,305
9.035,298
9.04,299
9.045,309
9.05,305
9.055,301
9.06,301
9.065,297
9.07,325
9.075,313
9.08,315
9.085,323
9.09,299
9.095,297
9.1,325
9.105,322
9.11,301
9.115,300
9.12,296
9.125,311
9.13,345
9.135,345
9.14,331
9.145,302
9.15,306
9.155,314
9.16,311
9.165,310
9.17,286
9.175,293
9.18,320
9.185,319
9.19,315
9.195,305
9.2,287
9.205,305
9.21,314
9.215,306
9.22,309
9.225,337
9.23,290
9.235,298
9.24,324
9.245,302
9.25,265
9.255,264
9.26,281
9.265,299
9.27,320
9.275,310
9.28,300
9.285,285
9.29,295
9.295,297
9.3,295
9.305,311
9.31,309
9.315,320
9.32,282
9.325,294
9.33,317
9.335,302
9.34,301
9.345,311
9.35,300
9.355,307
9.36,299
9.365,300
9.37,294
9.375,300
9.38,284
9.385,301
9.39,293
9.395,290
9.4,287
9.405,290
9.41,305
9.415,291
9.42,275
9.425,288
9.43,313
9.435,299
9.44,294
9.445,278
9.45,302
9.455,290
9.46,281
9.465,300
9.47,313
9.475,291
9.48,313
9.485,310
9.49,310
9.495,285
9.5,281
9.505,324
9.51,312
9.515,297
9.52,300
9.525,293
9.53,287
9.535,307
9.54,312
9.545,294
9.55,295
9.555,275
9.56,294
9.565,303
9.57,287
9.575,285
9.58,284
9.585,329
9.59,282
9.595,277
9.6,311
9.605,311
9.61,295
9.615,290
9.62,283
9.625,284
9.63,297
9.635,286
9.64,274
9.645,286
9.65,302
9.655,300
9.66,273
9.665,284
9.67,290
9.675,295
9.68,286
9.685,297
9.69,298
9.695,276
9.7,268
9.705,285
9.71,298
9.715,270
9.72,284
9.725,270
9.73,278
9.735,285
9.74,290
9.745,283
9.75,286
9.755,275
9.76,280
9.765,274
9.77,282
9.775,292
9.78,272
9.785,265
9.79,276
9.795,255
9.8,274
9.805,284
9.81,277
9.815,261
9.82,64
9.825,0
9.83,0
9.835,0
9.84,0
9.845,0
9.85,0
9.855,0
9.86,0
9.865,0
9.87,0
9.875,0
9.88,0
9.885,0
9.89,0
9.895,0
9.9,0
9.905,0
9.91,0
9.915,0
9.92,0
9.925,0
9.93,0
9.935,0
9.94,0
9.945,0
9.95,0
9.955,0
9.96,0
9.965,0
9.97,0
9.975,0
9.98,0
9.985,0
9.99,0
9.995,0
10,0
10.005,0
10.01,0
10.015,0
10.02,0
10.025,0
10.03,0
10.035,0
10.04,0
10.045,0
10.05,0
10.055,0
10.06,0
10.065,0
10.07,0
10.075,0
10.08,0
10.085,0
10.09,0
10.095,0
10.1,0
10.105,0
10.11,0
10.115,0
10.12,0
10.125,0
10.13,0
10.135,0
